389292,0.33,0.83,0.35
389344,0.36,0.84,0.34
389397,0.35,0.84,0.36
389449,0.33,0.84,0.37
389502,0.30,0.84,0.37
389556,0.32,0.87,0.36
389608,0.32,0.87,0.34
389661,0.30,0.86,0.37
389713,0.30,0.86,0.37
389767,0.30,0.87,0.36
389819,0.29,0.86,0.37
389872,0.30,0.87,0.36
389925,0.30,0.86,0.36
389978,0.30,0.88,0.38
390031,0.29,0.88,0.37
390083,0.28,0.85,0.37
390136,0.31,0.86,0.34
390189,0.30,0.88,0.33
390242,0.30,0.88,0.36
390294,0.30,0.85,0.34
390347,0.34,0.87,0.34
390401,0.34,0.86,0.30
390453,0.35,0.86,0.32
390506,0.34,0.87,0.33
390558,0.34,0.87,0.32
390611,0.33,0.87,0.31
390664,0.33,0.87,0.33
390717,0.34,0.87,0.30
390770,0.35,0.87,0.31
390822,0.34,0.85,0.32
390876,0.35,0.86,0.32
390928,0.35,0.86,0.31
390981,0.37,0.88,0.31
391033,0.39,0.85,0.31
391087,0.37,0.84,0.32
391139,0.36,0.84,0.31
391192,0.36,0.85,0.30
391245,0.38,0.87,0.27
391298,0.37,0.81,0.27
391351,0.36,0.88,0.27
391403,0.34,0.87,0.30
391456,0.36,0.88,0.29
391508,0.36,0.86,0.29
391562,0.40,0.88,0.30
391615,0.37,0.87,0.29
391667,0.38,0.86,0.28
391720,0.40,0.86,0.30
391773,0.39,0.86,0.30
391826,0.34,0.84,0.34
391878,0.35,0.87,0.31
391931,0.37,0.84,0.30
391984,0.37,0.84,0.30
392037,0.37,0.84,0.33
392090,0.36,0.85,0.33
392142,0.35,0.85,0.33
392196,0.35,0.86,0.33
392248,0.37,0.88,0.33
392301,0.40,0.88,0.34
392353,0.39,0.83,0.34
392407,0.32,0.81,0.33
392460,0.28,0.86,0.28
392512,0.35,0.88,0.26
392565,0.44,0.87,0.34
392617,0.44,0.81,0.42
392671,0.48,0.72,0.42
392723,0.39,0.80,0.51
392776,0.26,0.82,0.48
392828,0.30,0.80,0.45
392882,0.31,0.80,0.41
392935,0.33,0.81,0.42
392987,0.36,0.80,0.48
393040,0.35,0.78,0.49
393093,0.32,0.79,0.45
393146,0.32,0.82,0.44
393198,0.31,0.80,0.47
393251,0.34,0.80,0.48
393305,0.34,0.80,0.46
393357,0.35,0.77,0.45
393410,0.36,0.79,0.44
393462,0.37,0.79,0.45
393516,0.36,0.80,0.49
393568,0.35,0.79,0.47
393621,0.32,0.79,0.45
393673,0.29,0.82,0.44
393726,0.30,0.84,0.44
393780,0.30,0.84,0.42
393832,0.30,0.81,0.39
393885,0.32,0.84,0.35
393937,0.33,0.84,0.37
393991,0.34,0.88,0.34
394043,0.34,0.87,0.33
394096,0.38,0.86,0.34
394149,0.39,0.84,0.34
394202,0.39,0.84,0.35
394255,0.38,0.83,0.34
394307,0.37,0.85,0.34
394360,0.37,0.85,0.32
394413,0.35,0.86,0.32
394466,0.34,0.86,0.34
394518,0.34,0.87,0.34
394571,0.35,0.87,0.32
394625,0.35,0.84,0.34
394677,0.35,0.84,0.33
394730,0.35,0.84,0.31
394782,0.34,0.86,0.34
394835,0.35,0.86,0.34
394888,0.35,0.86,0.34
394941,0.37,0.86,0.32
394994,0.37,0.87,0.34
395046,0.37,0.86,0.34
395100,0.32,0.84,0.37
395152,0.33,0.87,0.31
395205,0.37,0.86,0.30
395257,0.41,0.83,0.30
395311,0.41,0.79,0.35
395363,0.39,0.84,0.39
395416,0.37,0.84,0.34
395469,0.35,0.85,0.34
395522,0.33,0.85,0.34
395575,0.32,0.85,0.34
395627,0.34,0.85,0.35
395680,0.34,0.86,0.36
395732,0.35,0.85,0.34
395786,0.36,0.84,0.34
395839,0.34,0.84,0.36
395891,0.34,0.84,0.33
395944,0.34,0.87,0.34
395997,0.35,0.87,0.31
396050,0.37,0.85,0.35
396102,0.36,0.83,0.34
396155,0.34,0.84,0.35
396209,0.34,0.85,0.33
396261,0.34,0.86,0.32
396314,0.36,0.86,0.33
396366,0.36,0.84,0.36
396420,0.36,0.84,0.34
396472,0.36,0.85,0.34
396525,0.34,0.85,0.34
396577,0.35,0.86,0.32
396631,0.34,0.88,0.30
396684,0.34,0.86,0.34
396736,0.37,0.85,0.29
396789,0.36,0.86,0.31
396841,0.36,0.85,0.30
396895,0.37,0.87,0.29
396947,0.37,0.86,0.30
397000,0.37,0.86,0.30
397053,0.37,0.85,0.31
397106,0.38,0.85,0.30
397159,0.37,0.85,0.30
397211,0.37,0.85,0.29
397264,0.36,0.86,0.32
397317,0.35,0.86,0.29
397370,0.36,0.86,0.30
397422,0.37,0.85,0.32
397475,0.37,0.85,0.28
397529,0.38,0.86,0.32
397581,0.37,0.86,0.31
397634,0.37,0.87,0.30
397686,0.37,0.87,0.32
397740,0.37,0.86,0.30
397792,0.37,0.85,0.27
397845,0.38,0.84,0.30
397898,0.37,0.85,0.33
397950,0.34,0.85,0.29
398004,0.36,0.87,0.30
398056,0.35,0.86,0.30
398109,0.36,0.86,0.30
398161,0.36,0.85,0.33
398215,0.38,0.85,0.29
398267,0.38,0.86,0.30
398320,0.37,0.84,0.28
398373,0.37,0.88,0.30
398426,0.36,0.86,0.29
398479,0.38,0.86,0.27
398531,0.37,0.86,0.27
398584,0.37,0.87,0.30
398637,0.36,0.87,0.29
398690,0.34,0.86,0.28
398743,0.35,0.85,0.27
398795,0.37,0.86,0.23
398849,0.36,0.88,0.27
398901,0.30,0.88,0.27
398954,0.35,0.88,0.29
399006,0.36,0.88,0.29
399059,0.36,0.88,0.27
399113,0.39,0.91,0.27
399165,0.41,0.92,0.23
399218,0.40,0.89,0.23
399270,0.35,0.84,0.22
399324,0.41,0.84,0.16
399376,0.41,0.82,0.15
399429,0.38,0.85,0.19
399481,0.34,0.88,0.29
399535,0.30,0.88,0.45
399588,0.30,0.88,0.24
399640,0.36,0.90,0.24
399693,0.37,0.88,0.21
399746,0.37,0.92,0.33
399799,0.40,0.95,0.29
399851,0.34,0.95,0.20
399904,0.34,0.91,0.23
399958,0.40,0.89,0.23
400010,0.41,0.88,0.20
400063,0.37,0.86,0.25
400115,0.40,0.80,0.31
400168,0.44,0.83,0.27
400221,0.43,0.84,0.27
400274,0.43,0.83,0.28
400326,0.42,0.80,0.29
400379,0.44,0.78,0.27
400433,0.42,0.83,0.27
400485,0.26,1.09,0.23
400538,0.17,1.07,0.34
400590,0.39,0.88,0.31
400644,0.45,0.66,0.37
400696,0.41,0.60,0.26
400749,0.57,0.67,0.21
400802,0.54,0.80,0.28
400855,0.52,0.92,0.30
400908,0.44,0.88,0.35
400960,0.43,0.95,0.33
401013,0.45,0.89,0.27
401065,0.43,0.88,0.23
401119,0.46,0.83,0.27
401171,0.42,0.75,0.27
401224,0.45,0.78,0.30
401277,0.59,0.84,0.34
401330,0.53,0.87,0.30
401383,0.45,0.85,0.22
401435,0.38,0.73,0.34
401488,0.41,0.76,0.38
401541,0.56,0.86,0.41
401594,0.59,0.77,0.20
401647,0.48,0.80,0.22
401699,0.54,0.71,0.34
401753,0.43,0.72,0.38
401805,0.41,0.65,0.43
401858,0.37,0.72,0.38
401910,0.39,0.84,0.36
401964,0.29,0.84,0.43
402017,0.23,0.95,0.41
402069,0.34,1.07,0.48
402122,0.67,1.41,0.44
402174,0.41,1.34,0.26
402228,0.37,1.23,0.12
402280,0.48,1.13,0.16
402333,0.54,0.88,0.23
402385,0.48,0.63,0.15
402439,0.40,0.55,0.12
402492,0.43,0.53,0.11
402544,0.43,0.56,0.10
402597,0.50,0.66,0.09
402650,0.65,0.84,0.23
402703,0.65,1.05,0.32
402755,0.71,1.43,0.41
402808,0.78,1.40,0.39
402862,0.32,1.09,0.18
402914,0.18,0.92,0.30
402967,0.23,0.80,0.45
403019,0.29,0.63,0.34
403073,0.39,0.62,0.34
403125,0.46,0.70,0.32
403178,0.35,0.74,0.32
403230,0.36,0.80,0.41
403283,0.41,0.95,0.47
403337,0.43,1.44,0.45
403389,0.57,1.52,0.34
403442,0.46,1.22,0.34
403494,0.48,0.91,0.26
403548,0.42,0.73,0.19
403600,0.32,0.61,0.03
403653,0.32,0.53,0.04
403706,0.37,0.50,0.04
403759,0.48,0.55,0.08
403812,0.52,0.66,0.03
403864,0.59,0.85,0.09
403917,0.86,1.11,0.29
403970,1.10,1.51,0.54
404023,0.70,1.05,0.55
404075,0.44,0.90,-0.08
404128,0.46,0.59,0.56
404182,0.36,0.57,0.31
404234,0.38,0.68,0.17
404287,0.28,0.72,0.25
404339,0.45,0.76,0.15
404392,0.34,0.81,0.11
404445,0.37,0.94,0.32
404498,0.38,0.84,0.34
404551,0.59,1.17,0.30
404603,0.70,1.51,0.59
404657,0.35,1.34,0.54
404709,0.72,1.21,0.40
404762,0.66,0.80,0.22
404814,0.69,0.72,0.20
404868,0.49,0.42,0.12
404920,0.55,0.42,0.20
404973,0.42,0.38,0.10
405026,0.55,0.55,0.12
405079,0.77,0.77,0.23
405132,0.91,1.12,0.20
405184,1.15,1.54,0.34
405237,0.77,1.30,0.49
405289,0.50,1.02,0.36
405343,0.35,0.89,0.45
405396,0.27,0.67,0.36
405448,0.21,0.67,0.26
405501,0.34,0.70,0.20
405554,0.41,0.81,0.20
405607,0.21,0.91,0.06
405659,0.40,1.09,0.18
405712,0.65,1.28,0.39
405765,0.92,1.36,0.46
405818,1.01,1.36,0.45
405871,0.69,1.04,0.16
405923,0.73,0.83,0.09
405977,0.80,0.50,0.00
406029,0.67,0.74,0.02
406082,0.56,0.62,0.22
406134,0.48,0.45,0.02
406188,0.59,0.50,0.05
406241,0.66,0.59,0.09
406293,0.85,0.71,0.12
406346,0.98,0.98,0.13
406398,1.05,1.20,0.37
406452,0.89,1.09,0.31
406504,0.64,0.92,0.30
406557,0.44,0.87,0.48
406609,0.39,0.76,0.48
406663,0.36,0.73,0.44
406716,0.37,0.69,0.34
406768,0.42,0.72,0.39
406821,0.39,0.70,0.31
406874,0.35,0.69,0.22
406927,0.57,0.86,0.24
406979,0.65,1.16,0.31
407032,0.75,1.75,0.22
407086,0.71,1.68,0.03
407138,0.63,1.28,0.36
407191,0.69,1.04,0.21
407243,0.74,0.43,0.12
407297,0.73,0.21,-0.04
407349,0.52,0.29,-0.10
407402,0.57,0.30,0.10
407455,0.59,0.50,0.17
407507,0.74,0.74,0.23
407561,1.04,0.94,0.34
407613,1.25,1.43,0.53
407666,0.98,1.31,0.37
407718,0.32,1.20,0.10
407772,0.20,0.89,0.36
407824,0.26,0.58,0.29
407877,0.49,0.59,0.30
407930,0.48,0.59,0.20
407983,0.47,0.65,0.15
408036,0.41,0.75,0.27
408088,0.45,0.95,0.37
408141,0.42,1.29,0.46
408194,0.58,1.81,0.60
408247,0.39,1.66,0.48
408300,0.47,1.15,0.31
408352,0.60,0.91,0.15
408406,0.48,0.52,-0.02
408458,0.73,0.19,-0.09
408511,0.66,0.33,-0.12
408563,0.55,0.48,0.04
408616,0.66,0.58,0.11
408670,0.94,0.84,0.14
408722,1.01,1.14,0.21
408775,1.25,1.37,0.47
408827,0.95,1.12,0.20
408881,0.27,0.89,0.41
408933,0.22,0.75,0.43
408986,0.32,0.63,0.30
409038,0.42,0.66,0.18
409092,0.36,0.70,0.16
409145,0.40,0.63,0.25
409197,0.38,0.70,0.23
409250,0.54,0.84,0.38
409303,0.63,1.13,0.48
409356,0.91,1.40,0.59
409408,0.54,1.20,0.66
409461,0.57,1.01,0.72
409515,0.74,0.86,0.53
409567,0.66,0.80,0.34
409620,0.55,0.55,0.12
409672,0.61,0.51,0.15
409725,0.60,0.35,0.20
409778,0.59,0.42,0.16
409831,0.83,0.59,0.29
409883,1.10,0.90,0.39
409936,1.39,1.44,0.44
409990,0.89,1.45,0.37
410042,0.32,1.16,0.62
410095,0.14,0.79,0.53
410147,0.24,0.65,0.29
410201,0.54,0.64,0.23
410253,0.55,0.59,0.20
410306,0.38,0.61,0.23
410359,0.41,0.74,0.37
410412,0.47,0.92,0.52
410465,0.63,1.32,0.52
410517,0.77,1.52,0.59
410570,0.57,1.49,0.52
410622,0.73,1.34,0.42
410676,0.75,1.02,0.30
410729,0.69,0.66,0.16
410781,0.52,0.45,0.13
410834,0.46,0.40,0.13
410887,0.55,0.31,0.06
410940,0.59,0.38,0.17
410992,0.73,0.62,0.26
411045,1.09,1.15,0.48
411098,1.14,1.67,0.69
411151,0.51,1.63,0.36
411204,0.05,1.31,0.25
411256,-0.04,0.95,0.25
411310,0.23,0.66,0.30
411362,0.44,0.72,0.28
411415,0.54,0.65,0.26
411467,0.44,0.64,0.13
411521,0.39,0.77,0.29
411574,0.48,0.91,0.59
411626,0.65,1.32,0.52
411679,0.64,1.38,0.52
411731,0.20,1.48,0.46
411785,0.41,1.34,0.41
411837,0.50,1.07,0.35
411890,0.44,0.76,0.20
411942,0.41,0.55,0.07
411996,0.42,0.43,0.06
412049,0.45,0.41,0.04
412101,0.52,0.48,0.02
412154,0.70,0.68,0.20
412207,0.97,1.11,0.53
412260,1.06,1.41,0.66
412312,0.48,1.48,0.41
412365,-0.07,1.34,0.45
412419,0.20,0.89,0.17
412471,0.29,0.75,0.17
412524,0.27,0.73,0.27
412576,0.18,0.83,0.05
412630,0.24,0.90,0.09
412682,0.42,1.12,0.12
412735,0.36,1.33,0.12
412787,0.54,1.59,0.25
412840,0.48,1.55,0.23
412894,0.52,1.46,0.23
412946,0.67,1.34,0.20
412999,0.63,0.93,0.16
413051,0.63,0.65,0.17
413105,0.48,0.48,0.22
413157,0.45,0.42,0.14
413210,0.52,0.41,0.09
413263,0.66,0.40,0.02
413316,0.74,0.71,0.01
413369,0.97,1.27,0.37
413421,0.70,1.91,0.35
413474,-0.11,1.73,-0.02
413527,0.18,1.11,-0.30
413580,0.21,0.74,-0.30
413633,0.21,0.68,-0.09
413685,0.27,0.66,0.00
413739,0.27,0.76,-0.01
413791,0.37,0.84,-0.12
413844,0.41,1.03,-0.08
413896,0.41,1.20,-0.02
413949,0.66,1.47,0.09
414002,0.39,1.63,0.23
414055,0.41,1.46,0.22
414108,0.55,1.25,0.26
414160,0.47,0.95,0.20
414214,0.45,0.80,0.17
414266,0.47,0.56,0.11
414319,0.46,0.42,0.02
414371,0.48,0.40,0.02
414425,0.58,0.41,0.02
414477,0.77,0.69,0.06
414530,1.00,1.33,0.58
414583,0.91,1.63,0.65
414636,0.37,1.55,0.48
414689,0.06,1.27,0.41
414741,0.12,0.87,0.29
414794,0.28,0.70,0.23
414846,0.28,0.69,0.25
414900,0.32,0.71,0.16
414953,0.25,0.81,0.11
415005,0.30,0.97,0.13
415058,0.30,1.23,0.22
415111,0.56,1.50,0.30
415164,0.39,1.55,0.34
415216,0.37,1.34,0.37
415269,0.57,1.23,0.30
415323,0.49,0.87,0.21
415375,0.52,0.78,0.20
415428,0.39,0.70,0.17
415480,0.34,0.59,0.12
415534,0.42,0.53,0.06
415586,0.58,0.45,0.14
415639,0.76,0.70,0.22
415691,0.88,1.18,0.56
415745,0.77,1.34,0.48
415798,0.44,1.31,0.41
415850,0.20,1.09,0.03
415903,0.19,0.88,-0.03
415955,0.28,0.78,0.05
416009,0.39,0.76,0.12
416061,0.38,0.77,0.12
416114,0.33,0.89,0.15
416167,0.34,1.11,0.11
416220,0.30,1.29,0.08
416273,0.41,1.55,0.21
416325,0.22,1.52,0.40
416378,0.34,1.39,0.38
416431,0.48,1.27,0.26
416484,0.59,1.11,0.15
416536,0.57,0.87,0.16
416589,0.55,0.63,0.12
416643,0.52,0.49,0.01
416695,0.53,0.31,0.04
416748,0.64,0.40,0.12
416800,0.79,0.86,0.21
416854,0.99,1.40,0.43
416906,0.95,1.80,0.43
416959,0.45,1.42,0.12
417012,0.18,1.03,0.04
417064,0.17,0.77,0.05
417118,0.34,0.72,0.12
417170,0.46,0.73,0.13
417223,0.41,0.77,0.12
417275,0.39,0.79,0.26
417329,0.45,1.07,0.30
417381,0.52,1.30,0.44
417434,0.78,1.48,0.55
417487,0.49,1.34,0.48
417540,0.57,1.27,0.36
417593,0.63,1.07,0.19
417645,0.55,0.90,0.03
417698,0.48,0.66,0.05
417751,0.47,0.46,0.09
417804,0.48,0.40,0.08
417857,0.52,0.37,0.05
417909,0.62,0.54,0.04
417963,0.88,0.84,0.20
418015,1.03,1.46,0.54
418068,0.91,1.66,0.43
418120,0.15,1.34,0.50
418173,0.14,0.96,0.57
418226,0.17,0.73,0.32
418279,0.33,0.66,0.18
418332,0.38,0.66,0.20
418384,0.41,0.72,0.16
418438,0.37,0.75,0.27
418490,0.45,0.85,0.41
418543,0.52,0.97,0.51
418595,0.80,1.30,0.63
418649,0.66,1.30,0.71
418702,0.46,1.23,0.61
418754,0.73,1.16,0.36
418807,0.74,0.95,0.33
418860,0.66,0.71,0.08
418913,0.54,0.34,0.09
418965,0.45,0.33,0.02
419018,0.45,0.34,0.10
419070,0.56,0.46,0.08
419124,0.88,0.79,0.10
419177,0.87,1.46,0.28
419229,0.91,1.67,0.40
419282,0.23,1.31,0.20
419335,0.05,1.01,0.50
419388,0.24,0.73,0.48
419440,0.40,0.69,0.23
419493,0.47,0.61,0.27
419547,0.49,0.64,0.19
419599,0.44,0.65,0.16
419652,0.46,0.72,0.23
419704,0.52,0.84,0.40
419758,0.84,1.10,0.48
419810,0.92,1.14,0.28
419863,0.69,0.91,0.30
419915,0.59,0.66,0.31
419969,0.51,0.57,0.21
420022,0.31,0.58,0.28
420074,0.20,0.73,0.45
420127,0.26,0.70,0.45
420179,0.34,0.73,0.34
420233,0.48,0.77,0.24
420285,0.65,0.80,0.21
420338,0.92,0.95,0.18
420391,0.91,1.05,0.08
420444,0.59,0.90,0.41
420497,0.58,0.49,0.66
420549,0.45,0.34,0.35
420602,0.42,0.52,0.20
420655,0.29,0.70,0.47
420708,0.30,0.70,0.47
420760,0.41,0.71,0.52
420813,0.37,0.84,0.62
420867,0.37,0.93,0.84
420919,0.37,1.23,1.15
420972,0.06,1.37,1.18
421024,0.15,1.29,0.98
421078,0.38,1.16,0.66
421130,0.48,1.03,0.45
421183,0.47,0.88,0.17
421236,0.45,0.59,0.00
421288,0.45,0.45,0.00
421342,0.49,0.41,0.04
421394,0.60,0.48,0.04
421447,0.77,0.58,0.02
421499,1.02,1.03,0.40
421553,1.02,1.28,0.61
421605,0.71,1.38,0.53
421658,0.25,1.20,0.73
421711,0.15,0.97,0.37
421764,0.17,0.90,0.30
421817,0.09,0.98,0.22
421869,0.04,0.93,0.17
421922,-0.05,0.95,0.13
421975,0.05,1.05,0.39
422028,0.17,1.27,0.40
422080,0.54,1.46,0.46
422133,0.25,1.48,0.32
422187,0.29,1.42,0.37
422239,0.30,1.24,0.29
422292,0.23,0.94,0.20
422344,0.24,0.86,0.06
422397,0.38,0.66,0.13
422450,0.39,0.46,0.11
422503,0.58,0.38,0.12
422556,0.56,0.59,0.00
422608,0.73,0.88,0.16
422662,1.04,1.02,0.61
422714,0.92,1.17,0.61
422767,0.70,1.13,0.53
422819,0.53,0.98,0.43
422873,0.41,0.78,0.31
422925,0.41,0.61,0.39
422978,0.45,0.64,0.34
423031,0.45,0.71,0.31
423084,0.40,0.88,0.27
423137,0.50,1.10,0.33
423189,0.55,1.42,0.48
423242,0.70,1.44,0.58
423294,0.48,1.38,0.46
423348,0.67,1.31,0.30
423401,0.65,1.12,0.20
423453,0.55,0.85,0.06
423506,0.55,0.62,0.02
423559,0.58,0.38,0.07
423612,0.64,0.27,0.12
423664,0.68,0.37,0.14
423717,0.70,0.67,0.13
423770,1.23,1.04,0.47
423823,1.33,1.47,0.40
423876,0.46,1.55,0.55
423928,0.12,1.09,0.53
423982,0.34,0.73,0.24
424034,0.34,0.63,0.10
424087,0.39,0.56,0.30
424139,0.30,0.68,0.36
424193,0.28,0.79,0.44
424246,0.30,0.99,0.57
424298,0.37,1.30,0.75
424351,0.48,1.42,0.87
424403,0.34,1.23,0.59
424457,0.65,1.13,0.37
424509,0.67,0.88,0.52
424562,0.53,0.75,0.34
424615,0.45,0.66,0.26
424668,0.48,0.59,0.16
424721,0.55,0.55,0.18
424773,0.61,0.59,0.19
424826,0.75,0.69,0.14
424879,1.00,0.94,0.48
424932,0.70,1.06,0.45
424984,0.45,0.94,0.71
425037,0.34,0.86,0.64
425091,0.20,0.77,0.44
425143,0.28,0.69,0.41
425196,0.36,0.68,0.47
425248,0.34,0.66,0.50
425302,0.33,0.79,0.52
425354,0.27,0.91,0.74
425407,0.36,1.12,0.63
425460,0.32,1.39,0.62
425512,0.17,1.47,0.51
425566,0.26,1.45,0.46
425618,0.42,1.33,0.23
425671,0.55,1.05,0.12
425723,0.57,0.78,0.05
425777,0.56,0.61,0.03
425829,0.55,0.51,0.05
425882,0.61,0.50,0.05
425935,0.69,0.56,0.11
425988,0.91,0.88,0.28
426041,1.06,1.16,0.30
426093,0.70,1.31,0.23
426146,0.45,1.30,0.45
426199,0.24,1.02,0.41
426252,0.31,0.85,0.19
426305,0.37,0.77,0.30
426357,0.45,0.72,0.30
426411,0.27,0.77,0.30
426463,0.30,0.91,0.30
426516,0.27,1.13,0.41
426568,0.43,1.53,0.44
426621,0.49,1.74,0.47
426675,0.51,1.59,0.37
426727,0.83,1.49,0.45
426780,0.80,1.13,0.30
426832,0.65,0.74,0.10
426886,0.57,0.48,0.06
426938,0.52,0.32,0.09
426991,0.48,0.32,0.09
427043,0.54,0.42,0.07
427097,0.79,0.77,0.19
427150,1.09,1.33,0.45
427202,1.09,1.59,0.53
427255,0.57,1.48,0.31
427308,0.31,1.26,0.41
427361,0.24,0.97,0.34
427413,0.40,0.73,0.27
427466,0.45,0.72,0.25
427520,0.43,0.73,0.20
427572,0.35,0.77,0.16
427625,0.41,0.86,0.28
427677,0.47,1.09,0.41
427730,0.62,1.38,0.41
427783,0.55,1.31,0.37
427836,0.70,1.30,0.24
427888,0.75,1.09,0.23
427941,0.52,0.93,0.06
427995,0.52,0.84,0.12
428047,0.51,0.84,0.09
428100,0.53,0.78,0.12
428152,0.56,0.76,0.06
428206,0.66,0.73,0.06
428258,0.75,0.74,0.16
428311,0.86,0.94,0.42
428364,0.52,1.16,0.39
428417,0.31,1.16,0.46
428470,0.23,1.06,0.48
428522,0.21,0.91,0.40
428575,0.29,0.86,0.27
428627,0.32,0.92,0.34
428681,0.30,0.98,0.32
428733,0.13,1.02,0.29
428786,0.09,1.12,0.38
428839,0.20,1.34,0.45
428892,0.33,1.52,0.37
428945,0.33,1.40,0.40
428997,0.61,1.39,0.36
429050,0.65,1.14,0.18
429103,0.58,0.95,0.12
429156,0.59,0.81,0.16
429209,0.55,0.63,0.20
429261,0.59,0.55,0.19
429315,0.65,0.61,0.24
429367,0.77,0.69,0.13
429420,0.96,0.95,0.24
429472,0.88,1.06,0.22
429526,0.58,1.14,0.22
429579,0.44,1.04,0.32
429631,0.34,0.83,0.27
429684,0.41,0.77,0.27
429736,0.57,0.80,0.23
429790,0.52,0.87,0.21
429842,0.45,0.89,0.18
429895,0.41,1.04,0.31
429947,0.42,1.21,0.49
430001,0.62,1.38,0.45
430054,0.48,1.36,0.37
430106,0.66,1.34,0.26
430159,0.75,1.16,0.15
430212,0.68,0.89,0.06
430265,0.66,0.67,0.16
430317,0.50,0.43,0.21
430370,0.54,0.55,0.18
430424,0.63,0.65,0.17
430476,0.73,0.72,-0.04
430529,1.07,0.88,0.05
430581,1.13,0.96,0.09
430635,0.91,1.08,-0.12
430687,0.77,1.01,0.47
430740,0.45,0.74,0.62
430793,0.52,0.75,0.41
430845,0.54,0.82,0.36
430899,0.47,0.91,0.36
430951,0.30,0.91,0.36
431004,0.21,1.01,0.41
431056,0.24,1.24,0.41
431110,0.52,1.63,0.41
431162,0.52,1.62,0.39
431215,0.68,1.45,0.20
431268,1.01,1.35,0.19
431321,1.11,0.96,0.09
431374,2.02,-0.05,-0.01
431426,0.75,-0.09,-0.35
431479,0.91,0.04,0.70
431532,0.77,0.48,0.38
431585,1.08,0.64,0.26
431638,0.90,0.88,0.09
431690,0.38,1.52,0.63
431744,1.26,0.65,-0.10
431796,0.90,0.78,-0.06
431849,0.61,0.73,0.11
431901,0.50,0.64,-0.01
431954,0.66,0.66,0.12
432008,0.39,0.88,0.16
432060,0.39,0.91,0.03
432113,0.33,1.00,-0.09
432165,0.44,1.10,0.02
432219,0.66,1.32,0.16
432271,0.95,1.37,0.27
432324,1.12,1.30,0.28
432376,1.12,0.82,0.11
432430,1.07,0.60,0.09
432483,1.63,-0.87,0.55
432535,0.44,0.43,-0.08
432588,0.87,0.26,0.05
432641,0.70,0.57,-0.02
432694,0.85,0.55,0.02
432746,0.98,0.77,0.02
432799,1.14,1.00,0.05
432852,1.24,1.13,0.26
432905,0.98,1.08,0.18
432958,0.54,0.83,0.23
433010,0.37,0.61,0.37
433063,0.39,0.55,0.37
433116,0.44,0.62,0.21
433169,0.43,0.77,0.20
433221,0.42,0.95,0.26
433274,0.23,0.90,0.17
433328,0.39,1.23,0.27
433380,0.73,1.45,0.39
433433,0.86,1.42,0.12
433485,1.29,1.39,0.05
433539,1.18,0.96,0.08
433591,0.70,0.71,-0.04
433644,0.52,0.52,0.11
433697,0.59,0.53,0.16
433750,0.57,0.59,0.04
433803,0.53,0.59,0.03
433855,0.63,0.66,0.16
433908,0.70,0.59,0.30
433960,0.70,0.85,0.21
434014,0.98,1.14,0.21
434067,1.03,1.50,0.21
434119,0.84,1.68,0.20
434172,0.59,1.30,0.19
434225,0.26,0.84,0.18
434278,0.19,0.66,0.29
434330,0.34,0.58,0.27
434383,0.45,0.63,0.18
434436,0.43,0.72,0.12
434489,0.55,0.80,0.09
434542,0.36,0.88,0.14
434594,0.37,1.05,0.27
434648,0.47,1.45,0.34
434700,0.66,1.77,0.28
434753,0.92,1.54,0.34
434805,0.66,1.15,0.19
434859,0.63,0.77,0.20
434912,0.68,0.28,0.15
434964,0.60,0.22,0.02
435017,0.50,0.38,0.05
435069,0.55,0.55,0.07
435123,0.64,0.75,0.08
435175,0.74,0.96,0.09
435228,0.99,1.26,0.21
435280,0.87,1.52,0.22
435334,0.76,1.58,0.33
435387,0.63,1.24,0.12
435439,0.27,0.97,0.05
435492,0.19,0.77,0.26
435545,0.27,0.58,0.37
435598,0.37,0.63,0.23
435650,0.48,0.72,0.16
435703,0.48,0.82,0.20
435757,0.34,0.84,0.23
435809,0.40,1.12,0.37
435862,0.40,1.48,0.36
435914,0.69,1.74,0.47
435968,0.49,1.63,0.42
436020,0.41,1.33,0.26
436073,0.57,0.83,0.20
436125,0.50,0.45,0.14
436178,0.43,0.27,0.06
436232,0.45,0.23,0.03
436284,0.49,0.35,0.09
436337,0.62,0.48,0.15
436389,0.95,0.84,0.24
436443,1.14,1.52,0.26
436495,1.06,2.00,0.39
436548,0.79,1.77,0.23
436601,0.23,1.36,0.08
436654,0.22,1.02,0.23
436707,0.33,0.75,0.43
436759,0.16,0.68,0.30
436812,0.36,0.80,0.23
436865,0.41,0.88,0.17
436918,0.45,0.94,0.23
436970,0.49,1.03,0.34
437023,0.59,1.35,0.45
437076,0.80,1.86,0.53
437129,0.38,1.78,0.45
437182,0.60,1.46,0.34
437234,0.66,0.85,0.16
437287,0.59,0.46,0.05
437340,0.45,0.27,-0.02
437393,0.48,0.21,0.08
437446,0.47,0.30,0.09
437498,0.54,0.51,0.06
437552,0.70,0.90,0.09
437604,0.91,1.30,0.16
437657,1.20,1.75,0.37
437709,1.07,1.66,0.26
437763,0.37,1.45,0.30
437815,0.12,1.02,0.59
437868,0.25,0.69,0.41
437921,0.41,0.69,0.15
437974,0.25,0.67,0.19
438027,0.35,0.81,0.06
438079,0.33,1.05,0.09
438132,0.27,1.40,0.26
438184,0.30,1.62,0.34
438238,0.59,1.78,0.33
438291,0.70,1.75,0.27
438343,1.15,1.65,0.17
438396,1.14,0.88,-0.19
438449,0.96,0.10,-0.06
438502,0.55,0.12,0.05
438554,0.54,0.09,0.33
438607,0.61,0.36,0.32
438660,0.76,0.61,0.27
438713,1.09,1.01,0.35
438766,1.48,1.65,0.39
438818,1.48,2.02,0.57
438872,0.55,1.52,0.46
438924,0.18,0.96,0.55
438977,0.25,0.65,0.43
439029,0.34,0.60,0.23
439083,0.45,0.61,0.25
439136,0.59,0.59,0.32
439188,0.45,0.65,0.34
439241,0.31,0.85,0.15
439293,0.42,1.12,0.27
439347,0.47,1.49,0.46
439399,0.65,1.58,0.41
439452,0.45,1.56,0.27
439505,0.53,1.20,0.16
439558,0.55,0.82,0.05
439611,0.40,0.52,0.02
439663,0.42,0.35,0.07
439716,0.42,0.32,0.17
439769,0.45,0.39,0.26
439822,0.65,0.57,0.22
439874,0.97,0.96,0.37
439927,1.32,1.50,0.44
439981,1.27,1.83,0.29
440033,0.21,1.27,0.32
440086,0.11,0.82,0.73
440138,0.27,0.74,0.26
440192,0.52,0.65,0.05
440244,0.59,0.62,0.18
440297,0.48,0.64,0.14
440350,0.30,0.66,0.27
440402,0.26,0.80,0.36
440456,0.34,1.05,0.46
440508,0.27,1.22,0.51
440561,0.41,1.52,0.39
440613,0.18,1.68,0.34
440667,0.31,1.47,0.18
440720,0.63,1.20,0.08
440772,0.54,0.67,-0.02
440825,0.69,0.45,-0.05
440878,0.68,0.51,-0.01
440931,0.55,0.35,0.05
440983,0.63,0.51,-0.02
441036,0.67,0.67,0.00
441089,1.12,1.14,0.09
441142,1.34,1.59,0.24
441195,0.96,1.46,0.27
441247,0.37,1.09,0.62
441300,0.27,0.77,0.48
441353,0.38,0.59,0.30
441406,0.48,0.50,0.22
441458,0.44,0.64,0.23
441511,0.48,0.71,0.20
441565,0.38,0.73,0.09
441617,0.39,0.85,0.27
441670,0.42,1.04,0.45
441722,0.65,1.46,0.42
441776,0.70,1.72,0.51
441828,0.51,1.41,0.43
441881,0.77,1.27,0.34
441933,0.77,0.79,0.21
441987,0.70,0.34,0.28
442040,0.56,0.34,0.20
442092,0.50,0.27,0.09
442145,0.59,0.34,0.14
442198,0.79,0.46,0.04
442251,0.95,0.93,0.05
442303,1.20,1.41,0.19
442356,1.21,1.69,0.14
442409,0.45,1.35,0.04
442462,-0.08,1.45,0.26
442515,-0.06,1.54,0.46
442567,0.30,1.33,0.09
442620,0.33,1.02,0.11
442673,0.45,0.82,-0.01
442726,0.41,0.73,-0.16
442778,0.34,0.64,-0.17
442831,0.44,0.68,-0.42
442885,0.48,0.87,-0.56
442937,0.76,0.98,-0.63
442990,0.84,0.96,-0.81
443042,0.64,0.83,-0.55
443096,0.44,0.74,-0.32
443148,0.29,0.55,-0.30
443201,0.20,0.41,-0.48
443254,0.04,0.56,-0.49
443307,0.08,0.57,-0.61
443360,0.12,0.44,-0.84
443412,0.02,0.67,-0.89
443465,0.09,0.70,-1.10
443517,0.15,0.61,-0.84
443571,0.21,0.68,-0.77
443624,-0.06,0.62,-1.11
443676,-0.02,0.51,-0.56
443729,0.00,0.57,-0.59
443782,-0.05,0.60,-0.77
443835,0.02,0.52,-0.91
443887,0.00,0.33,-0.64
443940,-0.11,0.44,-0.83
443993,-0.17,0.52,-0.65
444046,-0.12,0.57,-0.95
444099,-0.04,0.67,-1.09
444151,0.29,0.66,-1.08
444205,-0.13,1.03,-1.07
444257,-0.35,0.96,-0.70
444310,-0.27,0.64,-0.52
444363,-0.16,0.38,-0.31
444416,0.03,0.29,-0.08
444469,0.30,0.38,0.01
444521,0.53,0.63,-0.02
444574,0.77,0.74,0.16
444626,0.95,1.07,0.26
444680,1.07,1.56,0.30
444732,1.05,1.91,0.35
444785,0.81,2.00,0.23
444838,0.59,1.57,0.02
444891,0.36,0.89,0.06
444944,0.25,0.55,0.35
444996,0.32,0.49,0.32
445049,0.27,0.60,0.20
445102,0.36,0.67,0.12
445155,0.34,0.77,0.06
445208,0.36,0.90,0.17
445260,0.30,1.05,0.22
445314,0.35,1.45,0.36
445366,0.41,1.75,0.53
445419,0.89,1.87,0.57
445471,0.67,1.30,0.48
445524,0.55,0.93,0.20
445577,0.55,0.63,0.18
445630,0.44,0.34,0.12
445683,0.40,0.37,0.00
445735,0.36,0.36,-0.01
445789,0.50,0.45,0.08
445841,0.65,0.66,0.12
445894,0.86,0.98,0.17
445946,1.09,1.42,0.24
446000,1.17,1.86,0.41
446052,0.80,1.64,0.37
446105,0.29,1.15,0.12
446158,0.16,0.88,0.27
446211,0.21,0.68,0.36
446264,0.30,0.63,0.27
446316,0.38,0.70,0.14
446369,0.49,0.76,0.12
446422,0.45,0.73,0.18
446475,0.48,0.73,0.27
446528,0.60,0.90,0.33
446580,0.64,1.34,0.56
446633,0.53,1.71,0.60
446686,0.41,1.52,0.49
446739,0.66,1.20,0.34
446791,0.57,0.81,0.21
446844,0.44,0.53,0.05
446897,0.38,0.38,0.00
446950,0.37,0.34,0.05
447003,0.45,0.37,0.15
447055,0.56,0.55,0.13
447109,0.85,0.77,0.23
447161,1.06,1.19,0.26
447214,1.19,1.58,0.48
447266,0.91,1.47,0.30
447320,0.46,1.23,0.16
447373,0.33,0.83,0.33
447425,0.38,0.54,0.30
447478,0.44,0.55,0.16
447531,0.41,0.63,0.30
447584,0.41,0.80,0.35
447636,0.23,0.89,0.29
447689,0.40,1.05,0.39
447742,0.57,1.27,0.56
447795,0.91,1.52,0.52
447848,0.88,1.37,0.37
447900,1.12,0.69,0.41
447953,0.87,0.48,0.28
448006,0.37,0.66,0.17
448059,0.23,0.70,0.24
448111,0.34,0.58,0.19
448164,0.45,0.52,0.13
448218,0.51,0.63,0.01
448270,0.67,0.81,0.09
448323,0.70,0.91,0.15
448375,0.95,1.16,0.30
448429,1.07,1.17,0.27
448481,0.76,1.03,0.07
448534,0.59,0.71,0.35
448587,0.56,0.51,0.39
448640,0.66,0.42,0.24
448693,0.75,0.35,0.05
448745,0.71,0.41,0.00
448798,0.60,0.50,0.05
448850,0.55,0.61,0.10
448904,0.60,0.73,0.15
448956,0.42,0.80,0.23
449009,0.48,0.91,0.20
449062,0.73,1.12,0.34
449115,0.83,1.53,0.58
449168,0.67,1.41,0.41
449220,0.99,1.23,0.23
449273,1.02,0.71,0.20
449326,0.73,0.42,0.02
449379,0.70,0.42,0.10
449431,0.65,0.34,0.23
449484,0.63,0.46,0.12
449538,0.65,0.70,0.10
449590,0.73,0.87,0.05
449643,0.74,0.98,0.07
449695,0.79,1.04,0.15
449748,0.93,1.26,0.26
449801,1.05,1.27,0.29
449854,0.91,1.00,0.06
449907,0.48,0.69,0.16
449959,0.43,0.28,0.37
450013,0.67,0.30,0.29
450065,0.77,0.32,-0.02
450118,0.52,0.59,0.18
450170,0.51,0.70,0.14
450224,0.46,0.75,0.12
450276,0.45,0.88,0.20
450329,0.42,1.18,0.16
450382,0.49,1.09,0.30
450435,0.70,1.43,0.27
450488,0.67,1.60,0.27
450540,0.42,1.28,0.14
450593,0.63,0.90,0.20
450646,0.70,0.47,0.20
450699,0.43,0.41,0.27
450752,0.28,0.55,0.55
450804,0.14,0.70,0.43
450857,0.32,0.82,0.30
450910,0.52,0.86,0.06
450963,0.64,0.80,-0.09
451015,0.74,0.93,-0.03
451068,0.83,1.15,0.09
451121,0.92,1.17,0.25
451174,0.85,0.98,0.40
451227,0.39,0.78,0.27
451279,0.30,0.58,0.38
451333,0.52,0.57,0.34
451385,0.71,0.61,0.23
451438,0.59,0.80,0.27
451490,0.54,0.84,0.28
451544,0.42,0.75,0.29
451597,0.27,0.63,0.37
451649,0.26,0.67,0.38
451702,0.30,0.80,0.34
451755,0.27,1.06,0.34
451808,0.55,1.34,0.32
451860,0.37,1.30,0.23
451913,0.37,1.12,0.24
451965,0.69,1.06,0.37
452019,0.43,0.79,0.27
452072,0.44,0.69,0.44
452124,0.50,0.52,-0.02
452177,0.63,0.48,-0.04
452230,0.66,0.57,0.05
452283,0.66,0.72,0.12
452335,0.81,0.94,0.26
452388,0.93,1.22,0.32
452442,0.98,1.33,0.41
452494,0.73,1.11,0.13
452547,0.42,0.77,0.12
452599,0.44,0.61,0.38
452653,0.43,0.66,0.48
452705,0.27,0.68,0.41
452758,0.44,0.98,0.28
452811,0.39,0.88,0.07
452864,0.27,0.97,0.27
452917,0.47,1.01,0.27
452969,0.73,1.26,0.23
453022,0.98,1.25,0.12
453074,1.27,0.72,0.27
453128,1.22,1.10,0.21
453180,0.38,0.98,0.27
453233,0.48,0.88,0.26
453286,0.60,0.77,0.23
453339,0.45,0.50,0.16
453392,0.41,0.39,0.16
453444,0.50,0.40,0.25
453497,0.57,0.55,0.15
453550,0.65,0.87,0.20
453603,0.84,1.18,0.21
453656,0.80,1.30,0.18
453708,0.89,1.42,0.28
453762,0.66,1.05,0.21
453814,0.36,0.75,0.24
453867,0.41,0.53,0.62
453919,0.30,0.53,0.45
453972,0.49,0.66,0.25
454026,0.59,0.60,0.16
454078,0.57,0.62,0.16
454131,0.45,0.63,0.22
454183,0.40,0.61,0.29
454237,0.48,0.79,0.37
454289,0.59,1.04,0.41
454342,0.72,1.41,0.52
454394,0.44,1.61,0.58
454448,0.42,1.30,0.43
454501,0.73,1.09,0.31
454553,0.63,0.72,0.14
454606,0.48,0.48,0.17
454659,0.48,0.45,0.16
454712,0.39,0.49,0.08
454764,0.47,0.53,0.09
454817,0.48,0.51,0.18
454871,0.66,0.79,0.19
454923,0.82,1.08,0.23
454976,1.16,1.45,0.45
455028,1.04,1.41,0.38
455081,0.55,1.09,0.22
455134,0.42,0.69,0.51
455187,0.51,0.36,0.42
455240,0.90,0.20,0.06
455292,0.86,0.28,-0.04
455346,0.73,0.47,0.10
455398,0.57,0.51,0.33
455451,0.48,0.64,0.35
455503,0.63,0.82,0.31
455557,0.55,1.01,0.32
455609,0.79,1.30,0.40
455662,0.66,1.33,0.60
455715,0.45,1.34,0.52
455768,0.59,1.24,0.35
455821,0.57,1.08,0.30
455873,0.30,0.89,0.12
455926,0.39,0.69,0.10
455979,0.32,0.44,0.07
456032,0.37,0.39,0.05
456085,0.45,0.41,0.05
456137,0.64,0.50,0.20
456190,0.91,0.72,0.38
456243,1.19,1.33,0.80
456296,1.01,1.55,0.83
456348,0.40,1.21,0.52
456401,0.28,0.95,0.61
456454,0.30,0.73,0.52
456507,0.52,0.64,0.32
456560,0.61,0.59,0.22
456612,0.56,0.55,0.23
456666,0.48,0.55,0.30
456718,0.38,0.63,0.38
456771,0.49,0.80,0.41
456823,0.53,1.19,0.52
456877,0.65,1.37,0.62
456930,0.42,1.19,0.70
456982,0.55,1.23,0.67
457035,0.63,1.28,0.50
457088,0.62,1.12,0.39
457141,0.46,0.91,0.30
457193,0.39,0.71,0.25
457246,0.36,0.49,0.17
457298,0.34,0.36,0.09
457352,0.39,0.27,0.05
457405,0.55,0.37,0.13
457457,0.81,0.69,0.36
457510,1.09,1.23,0.67
457563,0.81,1.74,0.59
457616,0.37,1.33,0.92
457668,0.11,1.17,0.66
457721,0.28,0.91,0.31
457775,0.31,0.77,0.15
457827,0.39,0.69,0.18
457880,0.30,0.66,0.22
457932,0.34,0.71,0.16
457986,0.45,0.88,0.22
458038,0.48,1.12,0.27
458091,0.66,1.41,0.26
458144,0.41,1.51,0.41
458196,0.27,1.44,0.56
458250,0.62,1.45,0.45
458302,0.64,0.98,0.25
458355,0.53,0.59,0.18
458407,0.52,0.39,0.20
458461,0.42,0.42,0.16
458513,0.40,0.57,0.12
458566,0.48,0.61,0.07
458619,0.73,0.69,0.09
458672,1.04,0.98,0.34
458725,1.20,1.30,0.58
458777,0.75,1.27,0.67
458830,0.29,1.16,0.82
458883,0.28,0.85,0.66
458936,0.44,0.77,0.28
458989,0.37,0.70,0.32
459041,0.37,0.63,0.33
459095,0.30,0.63,0.27
459147,0.24,0.66,0.32
459200,0.30,0.83,0.41
459252,0.34,1.23,0.49
459305,0.32,1.53,0.63
459359,0.15,1.27,0.77
459411,0.41,1.20,0.65
459464,0.57,1.27,0.52
459516,0.53,1.05,0.59
459570,0.37,0.88,0.53
459622,0.30,0.72,0.48
459675,0.31,0.65,0.23
459728,0.33,0.59,0.12
459781,0.35,0.49,0.03
459834,0.48,0.51,0.07
459886,0.71,0.75,0.20
459939,1.05,1.06,0.50
459992,0.82,1.30,0.73
460045,0.63,1.24,0.89
460097,0.41,1.09,0.64
460150,0.37,0.89,0.33
460204,0.41,0.78,0.38
460256,0.40,0.72,0.34
460309,0.31,0.71,0.27
460361,0.27,0.77,0.28
460414,0.34,0.96,0.37
460467,0.33,1.16,0.34
460520,0.61,1.33,0.34
460573,0.59,1.20,0.49
460625,0.69,1.31,0.55
460679,0.73,1.42,0.41
460731,0.62,1.27,0.24
460784,0.63,0.91,0.10
460836,0.55,0.52,0.19
460890,0.53,0.37,0.16
460942,0.34,0.17,0.07
460995,0.63,0.34,0.09
461048,0.91,0.63,0.33
461101,1.15,1.34,0.61
461154,1.08,1.37,0.63
461206,0.92,1.20,0.33
461259,0.60,1.17,0.36
461312,0.50,1.00,0.38
461365,0.45,0.80,0.16
461418,0.37,0.70,0.21
461470,0.36,0.70,0.34
461523,0.32,0.72,0.31
461576,0.27,0.78,0.31
461629,0.37,0.94,0.43
461681,0.32,1.08,0.42
461734,0.57,1.29,0.47
461788,0.80,1.41,0.57
461840,0.57,1.35,0.65
461893,0.81,1.50,0.54
461945,0.77,1.27,0.37
461999,0.61,0.88,0.23
462051,0.59,0.59,0.13
462104,0.42,0.37,0.23
462157,0.41,0.27,0.17
462210,0.30,0.39,0.10
462263,0.49,0.59,0.09
462315,0.69,1.07,0.04
462368,0.92,1.58,0.65
462420,1.00,2.13,0.55
462474,0.33,1.88,0.58
462526,0.17,1.17,0.74
462579,0.19,0.85,0.45
462632,0.30,0.67,0.20
462685,0.42,0.57,0.23
462738,0.37,0.63,0.33
462790,0.29,0.66,0.27
462843,0.28,0.85,0.33
462896,0.43,1.20,0.63
462949,0.74,1.70,0.60
463002,0.52,1.73,0.52
463054,0.73,1.66,0.54
463108,0.88,1.29,0.48
463160,0.69,0.94,0.04
463213,0.55,0.51,0.10
463265,0.52,0.27,0.08
463319,0.51,0.16,0.08
463371,0.49,0.27,0.10
463424,0.62,0.51,0.12
463477,0.88,0.90,0.14
463529,1.09,1.44,0.34
463583,1.45,1.80,0.44
463635,0.87,1.68,0.19
463688,0.30,1.29,0.48
463740,0.17,0.88,0.49
463794,0.27,0.75,0.26
463847,0.52,0.69,0.16
463899,0.58,0.66,0.13
463952,0.41,0.74,0.10
464005,0.30,0.74,0.25
464058,0.45,0.88,0.49
464110,0.53,1.23,0.53
464163,0.86,1.60,0.62
464217,0.52,1.49,0.59
464269,0.84,1.29,0.73
464322,0.94,0.77,0.44
464374,0.71,0.48,0.16
464428,0.54,0.36,0.10
464480,0.46,0.25,0.09
464533,0.53,0.22,0.17
464585,0.60,0.36,0.17
464638,0.85,0.60,0.30
464692,1.17,1.03,0.39
464744,1.59,1.64,0.70
464797,1.02,1.66,0.73
464849,0.18,1.22,0.40
464903,0.20,0.95,0.42
464955,0.35,0.73,0.30
465008,0.47,0.55,0.27
465061,0.60,0.51,0.24
465114,0.55,0.54,0.29
465167,0.53,0.52,0.28
465219,0.55,0.59,0.43
465272,0.50,0.76,0.74
465325,0.41,1.28,0.88
465378,0.20,2.00,0.83
465430,0.03,1.73,0.55
465483,0.52,1.23,0.24
465537,0.61,0.80,0.12
465589,0.45,0.38,0.10
465642,0.43,0.34,0.05
465694,0.49,0.28,0.16
465747,0.46,0.32,0.10
465800,0.73,0.45,0.26
465853,0.99,0.93,0.43
465906,1.34,1.46,0.45
465958,1.57,1.92,0.46
466012,1.10,1.73,0.35
466064,0.28,1.20,0.47
466117,0.05,0.86,0.48
466169,0.33,0.63,0.31
466223,0.37,0.63,0.16
466276,0.42,0.68,0.30
466328,0.39,0.73,0.32
466381,0.32,0.80,0.34
466434,0.39,1.03,0.60
466487,0.63,1.55,0.63
466539,0.72,2.04,0.69
466592,0.40,1.50,0.43
466644,0.84,1.31,0.43
466698,0.77,1.01,0.49
466751,1.04,0.12,0.05
466803,0.59,0.02,-0.07
466856,0.51,0.10,0.09
466909,0.52,0.22,0.11
466962,0.71,0.47,0.21
467014,1.09,0.89,0.40
467067,1.48,1.39,0.48
467121,1.52,1.98,0.67
467173,0.45,1.34,0.41
467226,0.13,0.83,0.54
467278,0.43,0.65,0.34
467332,0.45,0.44,0.18
467384,0.33,0.51,0.09
467437,0.40,0.59,0.27
467489,0.36,0.81,0.23
467543,0.21,0.88,0.31
467596,0.37,0.99,0.39
467648,0.47,1.11,0.49
467701,0.86,1.51,0.61
467753,0.80,1.62,0.74
467807,0.69,1.48,0.58
467859,0.94,1.14,0.48
467912,0.74,0.71,0.25
467965,0.60,0.38,0.13
468018,0.42,0.25,0.13
468071,0.39,0.16,0.16
468123,0.52,0.24,0.16
468176,0.73,0.48,0.18
468229,1.13,1.00,0.44
468282,1.50,1.59,0.71
468335,1.17,1.71,0.61
468387,0.39,1.30,0.59
468441,0.08,0.98,0.66
468493,0.15,0.80,0.36
468546,0.38,0.64,0.27
468598,0.43,0.61,0.24
468652,0.46,0.58,0.24
468704,0.40,0.57,0.28
468757,0.43,0.64,0.43
468810,0.42,1.02,0.54
468862,0.52,1.39,0.70
468916,0.47,1.63,0.77
468968,0.34,1.45,0.63
469021,0.60,1.20,0.43
469073,0.61,0.77,0.23
469127,0.55,0.52,0.15
469180,0.51,0.41,0.12
469232,0.39,0.37,0.06
469285,0.45,0.40,0.15
469338,0.63,0.53,0.26
469391,0.87,0.83,0.34
469443,1.18,1.20,0.55
469496,1.24,1.70,0.59
469550,0.45,1.41,0.48
469602,0.09,1.12,0.23
469655,0.23,0.83,0.24
469707,0.35,0.65,0.21
469761,0.45,0.64,0.16
469813,0.48,0.67,0.12
469866,0.47,0.66,0.16
469919,0.47,0.77,0.24
469971,0.55,0.92,0.46
470025,0.60,1.42,0.55
470077,0.62,1.78,0.59
470130,0.59,1.34,0.45
470182,0.48,0.88,0.30
470236,0.46,0.58,0.19
470288,0.34,0.52,0.11
470341,0.39,0.57,0.16
470394,0.68,0.31,0.13
470447,0.73,0.32,-0.03
470500,0.73,0.59,0.07
470552,1.01,0.87,0.34
470605,1.21,1.19,0.48
470658,1.47,1.54,0.63
470711,0.81,1.55,0.45
470764,0.27,1.18,0.45
470816,0.24,0.81,0.47
470870,0.31,0.61,0.36
470922,0.54,0.62,0.21
470975,0.55,0.74,0.27
471027,0.53,0.82,0.31
471080,0.36,0.85,0.29
471134,0.56,1.02,0.52
471186,0.54,1.25,0.66
471239,0.84,1.63,0.56
471291,0.70,1.44,0.39
471345,0.63,1.09,0.27
471397,0.63,0.70,0.16
471450,0.47,0.39,0.02
471503,0.39,0.27,-0.02
471556,0.42,0.27,0.06
471609,0.53,0.38,0.15
471661,0.70,0.66,0.25
471714,0.96,0.88,0.52
471767,1.15,1.30,0.65
471820,1.16,1.65,0.73
471873,0.76,1.47,0.39
471925,0.12,0.96,0.56
471979,0.15,0.63,0.66
472031,0.24,0.58,0.38
472084,0.53,0.64,0.23
472136,0.63,0.61,0.23
472189,0.52,0.60,0.31
472242,0.48,0.58,0.45
472295,0.38,0.70,0.56
472348,0.51,1.02,0.66
472400,0.53,1.31,0.75
472454,0.30,1.54,0.77
472506,0.30,1.30,0.64
472559,0.45,1.06,0.43
472611,0.45,0.76,0.15
472665,0.44,0.52,0.00
472718,0.45,0.37,0.02
472770,0.48,0.30,0.10
472823,0.52,0.45,0.17
472876,0.74,0.77,0.26
472929,0.95,1.08,0.36
472981,1.20,1.59,0.71
473034,0.84,1.39,0.59
473086,0.48,1.16,0.48
473140,0.30,0.90,0.66
473193,0.19,0.64,0.40
473245,0.41,0.63,0.29
473298,0.46,0.66,0.28
473351,0.34,0.63,0.20
473404,0.32,0.81,0.23
473456,0.39,0.97,0.37
473509,0.50,1.38,0.55
473563,0.56,1.67,0.81
473615,0.43,1.56,0.76
473668,0.68,1.52,0.63
473720,0.81,1.15,0.39
473774,0.69,0.66,0.10
473826,0.61,0.34,0.14
473879,0.62,-0.03,0.07
473931,0.41,0.23,0.12
473985,0.52,0.36,0.21
474038,0.95,0.65,0.30
474090,1.30,1.10,0.52
474143,1.59,1.59,0.77
474195,1.13,1.56,0.48
474249,0.37,1.18,0.63
474301,0.20,0.77,0.53
474354,0.23,0.66,0.33
474407,0.58,0.58,0.33
474460,0.59,0.52,0.20
474513,0.53,0.59,0.16
474565,0.45,0.74,0.28
474618,0.60,0.89,0.44
474671,0.53,1.16,0.55
474724,0.75,1.40,0.70
474777,0.54,1.36,0.60
474829,0.55,1.29,0.56
474883,0.68,1.03,0.39
474935,0.58,0.73,0.22
474988,0.47,0.51,0.16
475040,0.45,0.39,0.16
475094,0.45,0.41,0.14
475146,0.51,0.48,0.15
475199,0.70,0.65,0.20
475252,1.00,1.12,0.46
475304,0.99,1.47,0.70
475358,0.53,1.43,0.56
475410,0.19,1.16,0.70
475463,0.12,0.90,0.56
475515,0.22,0.67,0.37
475569,0.43,0.63,0.34
475622,0.42,0.60,0.32
475674,0.34,0.69,0.32
475727,0.37,0.79,0.37
475780,0.47,1.00,0.48
475833,0.50,1.23,0.59
475885,0.58,1.35,0.69
475938,0.27,1.36,0.63
475992,0.57,1.32,0.57
476044,0.66,0.98,0.35
476097,0.52,0.79,0.18
476149,0.41,0.63,0.16
476203,0.39,0.45,0.13
476255,0.43,0.37,0.09
476308,0.52,0.41,0.16
476360,0.71,0.61,0.29
476413,1.06,1.05,0.58
476467,1.24,1.45,0.66
476519,0.79,1.49,0.61
476572,0.27,1.20,0.69
476624,0.14,0.84,0.47
476678,0.34,0.71,0.28
476730,0.45,0.69,0.30
476783,0.49,0.68,0.27
476836,0.36,0.70,0.20
476889,0.31,0.75,0.30
476942,0.40,0.94,0.42
476994,0.51,1.24,0.46
477047,0.73,1.49,0.70
477100,0.41,1.37,0.65
477153,0.52,1.33,0.59
477206,0.55,1.17,0.47
477258,0.41,0.84,0.28
477312,0.34,0.64,0.20
477364,0.34,0.45,0.09
477417,0.34,0.31,0.12
477469,0.45,0.36,0.20
477522,0.58,0.53,0.22
477575,0.79,0.81,0.42
477628,1.19,1.17,0.70
477681,1.09,1.66,0.84
477733,0.30,1.49,0.92
477787,0.11,1.09,0.57
477839,0.29,0.76,0.34
477892,0.45,0.59,0.30
477944,0.52,0.51,0.24
477998,0.52,0.50,0.20
478051,0.34,0.59,0.22
478103,0.43,0.83,0.54
478156,0.33,1.09,0.70
478209,0.42,1.55,0.66
478262,0.38,1.45,0.81
478314,0.47,1.39,0.64
478367,0.65,1.33,0.45
478420,0.52,0.95,0.34
478473,0.44,0.69,0.20
478526,0.43,0.45,0.12
478578,0.41,0.34,0.11
478631,0.45,0.37,0.12
478684,0.60,0.52,0.20
478737,0.77,0.80,0.36
478789,1.02,1.16,0.71
478842,1.13,1.41,0.67
478896,0.61,1.39,0.63
478948,0.12,1.14,0.73
479001,0.15,0.89,0.56
479053,0.21,0.91,0.27
479107,0.37,0.69,0.30
479159,0.31,0.68,0.30
479212,0.21,0.67,0.32
479265,0.26,0.83,0.37
479318,0.30,1.12,0.59
479371,0.48,1.45,0.67
479423,0.42,1.47,0.66
479476,0.37,1.39,0.61
479528,0.59,1.34,0.50
479582,0.58,1.06,0.34
479635,0.55,0.73,0.16
479687,0.51,0.46,0.17
479740,0.45,0.31,0.14
479793,0.46,0.32,0.16
479846,0.57,0.44,0.22
479898,0.80,0.75,0.31
479951,1.05,1.30,0.54
480004,1.03,1.77,0.59
480057,0.53,1.47,0.35
480110,0.33,1.24,0.32
480162,0.20,0.94,0.27
480216,0.33,0.69,0.34
480268,0.43,0.66,0.36
480321,0.34,0.76,0.32
480373,0.40,0.77,0.30
480427,0.27,0.86,0.28
480480,0.34,1.02,0.48
480532,0.52,1.41,0.57
480585,0.68,1.65,0.53
480637,0.58,1.48,0.41
480691,0.76,1.25,0.35
480743,0.74,0.78,0.23
480796,0.59,0.49,0.09
480849,0.55,0.28,0.01
480902,0.43,0.21,0.13
480955,0.53,0.23,0.27
481007,0.62,0.44,0.30
481060,0.90,0.80,0.50
481113,1.04,1.30,0.57
481166,1.24,1.66,0.61
481218,0.35,1.34,0.29
481271,0.09,1.01,0.33
481325,0.26,0.71,0.30
481377,0.32,0.60,0.24
481430,0.32,0.59,0.20
481482,0.43,0.70,0.18
481536,0.41,0.74,0.22
481588,0.27,0.83,0.23
481641,0.28,1.20,0.45
481694,0.16,1.73,0.51
481746,0.41,1.81,0.37
481800,0.59,1.41,0.24
481852,1.05,0.63,0.38
481905,0.96,0.37,-0.39
481957,0.66,0.20,-0.10
482011,0.48,0.48,0.09
482064,0.46,0.68,0.17
482116,0.59,0.73,0.22
482169,0.75,0.89,0.24
482222,0.80,1.09,0.25
482275,0.93,1.34,0.32
482327,0.98,1.24,0.23
482380,0.55,0.95,0.02
482433,0.14,0.93,0.22
482486,0.22,0.60,0.37
482539,0.24,0.60,0.28
482591,0.23,0.69,0.25
482644,0.32,0.76,0.17
482697,0.43,0.86,0.23
482750,0.37,0.97,0.23
482802,0.45,1.21,0.34
482855,0.71,1.42,0.46
482909,0.78,1.54,0.50
482961,0.74,1.31,0.37
483014,0.66,0.92,0.17
483066,0.67,0.63,0.00
483120,0.52,0.39,-0.03
483172,0.46,0.34,0.04
483225,0.48,0.38,0.23
483277,0.58,0.54,0.32
483331,0.65,0.73,0.37
483384,0.82,0.95,0.48
483436,0.91,1.09,0.41
483489,1.22,1.54,0.49
483542,0.64,1.25,0.29
483595,0.18,1.05,0.27
483647,0.27,0.90,0.37
483700,0.32,0.73,0.37
483752,0.29,0.66,0.28
483806,0.39,0.66,0.31
483859,0.43,0.66,0.41
483911,0.32,0.63,0.37
483964,0.39,0.79,0.45
484017,0.46,1.00,0.63
484070,0.54,1.38,0.70
484122,0.60,1.48,0.73
484175,0.32,1.15,0.56
484229,0.56,1.00,0.42
484281,0.63,0.83,0.26
484334,0.52,0.59,0.12
484386,0.48,0.48,0.08
484440,0.45,0.41,0.09
484492,0.52,0.42,0.15
484545,0.60,0.55,0.19
484598,0.86,0.79,0.41
484651,0.98,1.12,0.52
484704,1.08,1.42,0.70
484756,0.73,1.26,0.52
484809,0.26,1.02,0.44
484861,0.20,0.84,0.53
484915,0.28,0.74,0.46
484967,0.41,0.67,0.30
485020,0.38,0.65,0.34
485073,0.30,0.63,0.42
485126,0.30,0.62,0.45
485179,0.47,0.78,0.55
485231,0.48,1.10,0.66
485284,0.73,1.48,0.70
485337,0.57,1.34,0.75
485390,0.58,1.15,0.63
485443,0.70,0.98,0.42
485495,0.55,0.63,0.34
485549,0.45,0.42,0.26
485601,0.41,0.43,0.17
485654,0.39,0.45,0.15
485706,0.43,0.51,0.15
485760,0.58,0.59,0.19
485813,0.78,0.83,0.35
485865,1.00,1.14,0.53
485918,1.16,1.35,0.61
485970,0.77,1.17,0.52
486024,0.45,1.08,0.59
486076,0.23,0.79,0.63
486129,0.29,0.70,0.43
486182,0.50,0.66,0.33
486235,0.52,0.63,0.29
486288,0.48,0.63,0.30
486340,0.48,0.66,0.33
486393,0.62,0.76,0.45
486446,0.70,0.95,0.59
486499,0.92,1.28,0.61
486551,0.68,1.25,0.69
486604,0.45,1.12,0.66
486658,0.56,0.98,0.45
486710,0.48,0.77,0.30
486763,0.41,0.54,0.20
486815,0.41,0.41,0.15
486868,0.47,0.36,0.12
486921,0.53,0.41,0.11
486974,0.66,0.55,0.28
487027,0.90,0.94,0.44
487079,1.20,1.38,0.63
487133,1.09,1.60,0.63
487185,0.52,1.30,0.48
487238,0.30,0.98,0.55
487290,0.25,0.81,0.47
487344,0.33,0.67,0.41
487396,0.49,0.63,0.25
487449,0.55,0.58,0.30
487502,0.49,0.63,0.37
487555,0.46,0.70,0.44
487608,0.66,0.77,0.59
487660,0.73,1.02,0.70
487713,0.94,1.23,0.80
487766,0.64,1.22,0.85
487819,0.59,1.12,0.64
487872,0.61,0.93,0.46
487924,0.52,0.73,0.30
487977,0.45,0.47,0.18
488030,0.43,0.39,0.12
488083,0.45,0.32,0.15
488135,0.55,0.42,0.16
488188,0.78,0.60,0.28
488242,0.96,0.94,0.35
488294,1.27,1.29,0.63
488347,1.02,1.46,0.82
488399,0.21,1.22,0.77
488453,0.20,0.86,0.77
488505,0.22,0.73,0.59
488558,0.34,0.63,0.43
488611,0.35,0.59,0.40
488664,0.34,0.58,0.45
488717,0.35,0.63,0.41
488769,0.41,0.73,0.54
488822,0.45,0.83,0.73
488875,0.59,1.08,0.77
488928,0.63,1.24,0.84
488980,0.39,1.15,0.78
489033,0.53,1.12,0.63
489086,0.51,0.87,0.48
489139,0.36,0.65,0.33
489192,0.35,0.45,0.23
489244,0.37,0.34,0.19
489297,0.42,0.37,0.12
489350,0.50,0.55,0.16
489403,0.57,0.86,0.24
489456,0.70,1.17,0.38
489508,0.80,1.33,0.52
489562,0.55,1.38,0.52
489614,0.16,1.12,0.84
489667,0.18,0.91,0.83
489719,0.30,0.63,0.62
489773,0.34,0.55,0.42
489826,0.34,0.55,0.41
489878,0.43,0.62,0.39
489931,0.39,0.68,0.39
489984,0.48,0.84,0.51
490037,0.63,1.04,0.66
490089,0.68,1.19,0.74
490142,0.34,1.09,0.66
490195,0.50,1.02,0.53
490248,0.55,0.84,0.30
490301,0.45,0.65,0.19
490353,0.40,0.62,0.17
490406,0.37,0.61,0.23
490459,0.41,0.61,0.16
490512,0.52,0.72,0.12
490564,0.65,0.89,0.19
490617,0.75,0.98,0.41
490671,0.76,1.09,0.49
490723,0.48,1.16,0.45
490776,0.19,0.96,0.57
490828,0.27,0.71,0.52
490882,0.33,0.62,0.32
490934,0.31,0.61,0.30
490987,0.36,0.67,0.36
491040,0.20,0.68,0.41
491092,0.18,0.68,0.52
491146,0.04,0.98,0.78
491198,-0.05,1.38,0.80
491251,0.21,1.74,0.55
491303,0.20,1.88,0.48
491357,0.34,1.47,0.30
491410,0.52,1.05,0.21
491462,0.47,0.71,0.30
491515,0.43,0.46,0.19
491568,0.49,0.31,0.06
491621,0.70,0.40,-0.02
491673,0.68,0.48,0.09
491726,0.69,0.70,0.28
491779,1.09,1.10,0.69
491832,1.52,1.64,0.78
491885,1.17,1.91,0.59
491937,0.37,1.30,0.69
491991,-0.01,0.88,0.74
492043,0.15,0.73,0.37
492096,0.34,0.59,0.23
492148,0.34,0.62,0.32
492201,0.34,0.62,0.38
492255,0.34,0.77,0.32
492307,0.37,0.90,0.48
492360,0.48,1.13,0.67
492412,0.66,1.49,0.88
492466,0.57,1.70,0.87
492518,0.55,1.39,0.59
492571,0.67,1.09,0.35
492623,0.50,0.66,0.15
492677,0.41,0.42,0.12
492730,0.34,0.29,0.16
492782,0.33,0.32,0.12
492835,0.45,0.42,0.06
492888,0.70,0.56,0.20
492941,1.02,0.98,0.43
492993,1.33,1.45,0.73
493046,0.98,1.90,0.97
493100,0.22,1.00,1.06
493152,0.02,0.92,0.66
493205,0.04,0.75,0.56
493257,0.19,0.72,0.26
493310,0.27,0.69,0.37
493363,0.23,0.75,0.23
493416,0.16,0.81,0.27
493468,0.12,0.87,0.54
493521,0.13,1.04,0.65
493575,0.43,1.45,0.80
493627,0.45,1.48,0.89
493680,0.48,1.25,0.70
493732,0.63,1.12,0.48
493786,0.70,0.95,0.45
493838,0.55,0.65,0.24
493891,0.48,0.49,0.14
493944,0.45,0.29,0.20
493997,0.55,0.19,0.31
494050,0.68,0.34,0.34
494102,0.95,0.64,0.51
494155,1.47,1.28,0.72
494208,1.55,1.63,0.80
494261,0.78,1.35,0.61
494314,0.38,1.03,0.49
494366,0.24,0.79,0.40
494419,0.45,0.63,0.34
494472,0.65,0.59,0.31
494525,0.61,0.60,0.32
494577,0.42,0.68,0.36
494630,0.49,0.75,0.48
494683,0.69,0.95,0.52
494736,0.91,1.27,0.59
494789,0.81,1.38,0.77
494841,0.62,1.48,0.59
494895,0.89,1.19,0.41
494947,0.85,0.65,0.20
495000,0.51,0.55,0.09
495052,0.29,0.45,0.16
495106,0.37,0.30,0.12
495159,0.45,0.28,0.07
495211,0.63,0.38,0.11
495264,0.86,0.62,0.21
495316,1.27,0.88,0.62
495370,1.56,1.25,0.61
495422,0.98,1.35,0.69
495475,0.36,1.19,0.74
495527,0.17,0.86,0.46
495581,0.57,0.61,0.33
495634,0.62,0.52,0.34
495686,0.62,0.48,0.28
495739,0.42,0.58,0.29
495792,0.52,0.67,0.48
495845,0.50,0.87,0.63
495897,0.60,1.18,0.66
495950,0.61,1.40,0.80
496004,0.53,1.36,0.82
496056,0.79,1.37,0.62
496109,0.85,1.13,0.35
496161,0.80,0.92,0.18
496215,0.78,0.61,0.19
496267,0.80,0.48,0.09
496320,0.57,0.25,-0.02
496373,0.55,0.13,0.06
496425,0.74,0.30,0.20
496479,1.12,0.63,0.43
496531,1.58,1.16,0.61
496584,1.17,1.42,0.51
496636,0.34,1.27,0.93
496690,0.20,0.98,0.58
496742,0.50,0.70,0.34
496795,0.48,0.62,0.37
496848,0.44,0.62,0.30
496901,0.33,0.66,0.39
496954,0.34,0.77,0.45
497006,0.41,0.93,0.59
497059,0.74,1.16,0.61
497112,0.73,1.29,0.67
497165,0.53,1.39,0.76
497218,0.68,1.24,0.55
497270,0.70,0.97,0.36
497324,0.43,0.73,0.28
497376,0.36,0.54,0.27
497429,0.37,0.40,0.23
497481,0.32,0.37,0.16
497534,0.50,0.41,0.18
497588,0.79,0.50,0.30
497640,1.04,0.84,0.67
497693,1.37,1.19,0.62
497745,0.90,1.26,0.65
497799,0.55,1.19,0.56
497851,0.30,0.96,0.30
497904,0.41,0.75,0.22
497956,0.57,0.66,0.20
498010,0.63,0.63,0.21
498063,0.50,0.63,0.29
498115,0.45,0.72,0.46
498168,0.56,0.93,0.63
498221,0.83,1.34,0.66
498274,0.68,1.25,0.55
498326,0.64,1.16,0.50
498379,0.91,1.14,0.50
498433,0.73,0.84,0.15
498485,0.71,0.59,-0.01
498538,0.46,0.56,0.10
498590,0.41,0.47,0.21
498643,0.46,0.41,0.20
498696,0.63,0.53,0.16
498749,0.91,0.77,0.21
498802,1.25,1.12,0.55
498854,1.19,1.28,0.57
498908,0.70,1.21,0.37
498960,0.47,1.02,0.52
499013,0.37,0.72,0.40
499065,0.47,0.67,0.21
499119,0.51,0.73,0.10
499171,0.55,0.80,0.12
499224,0.41,0.77,0.08
499277,0.27,0.80,0.38
499330,0.33,1.09,0.47
499383,0.45,1.48,0.45
499435,0.52,1.52,0.66
499488,0.79,1.66,0.70
499540,1.06,1.56,0.64
499594,1.00,1.12,0.31
499647,0.74,0.66,0.21
499699,0.56,0.45,0.16
499752,0.57,0.35,0.13
499805,0.68,0.17,0.10
499858,0.62,0.34,0.17
499910,0.84,0.53,0.29
499963,1.33,1.14,0.48
500017,1.69,1.85,0.55
500069,0.98,2.05,0.69
500122,0.09,1.13,1.02
500174,0.27,0.84,0.48
500228,0.50,0.70,0.18
500280,0.47,0.63,0.26
500333,0.34,0.68,0.26
500385,0.23,0.77,0.23
500439,0.25,0.97,0.37
500492,0.39,1.16,0.54
500544,0.90,1.48,0.68
500597,0.98,1.34,0.79
500649,0.81,1.27,0.64
500703,0.97,1.12,0.45
500755,0.85,0.75,0.23
500808,0.62,0.45,0.16
500861,0.48,0.30,0.17
500914,0.48,0.19,0.26
500967,0.52,0.31,0.32
501019,0.76,0.55,0.30
501072,1.07,0.95,0.22
501125,1.40,1.47,0.43
501178,0.97,1.73,0.45
501231,0.12,1.29,0.79
501283,0.12,0.92,0.68
501337,0.19,0.80,0.26
501389,0.27,0.69,0.22
501442,0.30,0.70,0.33
501494,0.24,0.71,0.38
501548,0.19,0.76,0.35
501600,0.30,0.91,0.52
501653,0.26,1.11,0.68
501706,0.54,1.64,0.75
501758,0.35,1.52,0.72
501812,0.44,1.35,0.56
501864,0.57,1.10,0.36
501917,0.48,0.70,0.14
501969,0.42,0.52,0.14
502023,0.36,0.36,0.15
502076,0.41,0.34,0.18
502128,0.52,0.46,0.23
502181,0.73,0.69,0.36
502234,0.96,1.05,0.51
502287,1.19,1.60,0.76
502339,0.82,1.57,0.52
502392,0.22,1.26,0.60
502446,0.12,0.91,0.58
502498,0.17,0.76,0.31
502551,0.35,0.66,0.16
502603,0.40,0.62,0.22
502657,0.25,0.70,0.28
502709,0.29,0.72,0.31
502762,0.42,0.84,0.45
502814,0.57,0.98,0.51
502867,0.67,1.34,0.60
502921,0.60,1.30,0.78
502973,0.41,1.13,0.68
503026,0.59,0.99,0.39
503078,0.49,0.74,0.22
503132,0.41,0.59,0.17
503184,0.41,0.45,0.16
503237,0.46,0.43,0.18
503290,0.52,0.51,0.17
503343,0.63,0.71,0.16
503396,0.82,0.95,0.23
503448,1.09,1.27,0.52
503501,0.91,1.42,0.54
503554,0.42,1.23,0.43
503607,0.29,0.89,0.59
503660,0.27,0.64,0.41
503712,0.31,0.56,0.30
503766,0.52,0.59,0.23
503818,0.56,0.60,0.21
503871,0.44,0.66,0.12
503923,0.51,0.86,0.37
503976,0.49,1.09,0.78
504030,0.90,1.49,0.88
504082,0.41,1.33,0.83
504135,0.45,1.27,0.69
504187,0.70,1.09,0.49
504241,0.46,0.93,0.32
504293,0.36,0.97,0.16
504346,0.36,0.64,0.02
504398,0.39,0.29,0.01
504452,0.48,0.08,0.09
504505,0.68,0.30,0.12
504557,0.83,0.75,0.29
504610,1.19,1.27,0.66
504663,1.55,1.80,0.67
504716,0.79,1.73,0.77
504768,0.16,1.09,0.96
504821,0.10,0.80,0.48
504875,0.47,0.77,0.20
504927,0.56,0.70,0.23
504980,0.37,0.70,0.23
505032,0.23,0.73,0.39
505085,0.34,0.89,0.48
505138,0.60,1.31,0.48
505191,1.02,1.71,0.46
505243,0.70,1.54,0.52
505296,0.92,1.50,0.57
505350,0.95,1.12,0.35
505402,0.72,0.75,0.20
505455,0.55,0.45,0.10
505507,0.49,0.28,0.13
505561,0.41,0.21,0.10
505613,0.47,0.31,0.12
505666,0.66,0.61,0.21
505719,0.98,1.02,0.54
505772,1.35,1.59,0.82
505825,0.76,1.53,0.75
505877,0.18,1.22,0.94
505930,-0.01,0.88,0.50
505982,0.29,0.72,0.29
506036,0.50,0.61,0.28
506088,0.53,0.58,0.16
506141,0.42,0.61,0.16
506194,0.36,0.68,0.35
506247,0.45,0.87,0.55
506300,0.41,1.27,0.74
506352,0.35,1.41,0.73
506405,0.38,1.51,0.82
506458,0.66,1.49,0.58
506511,0.87,1.20,0.32
506564,0.84,0.84,0.11
506616,0.74,0.57,0.13
506670,0.55,0.37,0.09
506722,0.58,0.25,0.11
506775,0.71,0.29,0.11
506827,0.91,0.55,0.27
506881,1.27,0.99,0.51
506934,1.70,1.52,0.52
506986,1.31,1.60,0.53
507039,0.73,1.30,0.84
507091,0.12,0.82,0.49
507145,0.23,0.66,0.21
507197,0.69,0.66,0.10
507250,0.72,0.57,0.21
507302,0.61,0.54,0.10
507356,0.49,0.66,0.27
507409,0.65,0.84,0.52
507461,0.75,1.09,0.50
507514,0.98,1.26,0.63
507567,0.73,1.30,0.64
507620,0.91,1.37,0.47
507672,0.82,1.07,0.24
507725,0.59,0.80,0.15
507779,0.57,0.62,0.12
507831,0.46,0.34,0.10
507884,0.46,0.28,0.09
507936,0.53,0.26,0.15
507990,0.70,0.42,0.29
508042,1.06,0.80,0.49
508095,1.41,1.37,0.67
508148,1.03,1.54,0.62
508200,0.46,1.30,0.80
508254,0.22,0.99,0.54
508306,0.30,0.74,0.30
508359,0.45,0.61,0.23
508411,0.50,0.58,0.20
508465,0.48,0.60,0.21
508517,0.48,0.64,0.30
508570,0.56,0.77,0.49
508623,0.64,0.94,0.54
508676,1.02,1.15,0.69
508729,0.91,1.15,0.65
508781,0.65,1.09,0.56
508834,0.83,0.93,0.48
508887,0.64,0.70,0.30
508940,0.55,0.56,0.20
508992,0.52,0.45,0.18
509045,0.49,0.36,0.11
509099,0.57,0.37,0.12
509151,0.65,0.49,0.13
509204,0.79,0.66,0.23
509256,1.13,0.89,0.49
509309,1.31,1.24,0.55
509362,0.53,1.38,0.81
509415,0.15,0.91,1.05
509468,0.26,0.81,0.48
509520,0.21,0.59,0.41
509574,0.28,0.59,0.41
509626,0.37,0.61,0.29
509679,0.37,0.56,0.28
509731,0.46,0.73,0.37
509785,0.51,0.87,0.59
509838,0.61,1.27,0.88
509890,0.43,1.44,1.02
509943,0.30,1.28,0.84
509996,0.70,1.30,0.57
510049,0.58,0.95,0.34
510101,0.43,0.73,0.26
510154,0.37,0.57,0.20
510208,0.34,0.43,0.14
510260,0.37,0.38,0.10
510313,0.44,0.35,0.11
510365,0.61,0.48,0.14
510418,0.96,0.85,0.41
510471,1.47,1.58,0.62
510524,1.06,1.83,0.63
510576,0.21,1.12,1.21
510629,0.12,0.88,0.66
510683,0.33,0.73,0.20
510735,0.43,0.62,0.27
510788,0.48,0.59,0.29
510840,0.45,0.60,0.22
510894,0.46,0.64,0.20
510946,0.47,0.72,0.36
510999,0.54,0.95,0.58
511052,0.80,1.29,0.62
511105,0.61,1.28,0.59
511158,0.38,1.13,0.59
511210,0.62,1.12,0.52
511263,0.60,0.93,0.37
511315,0.47,0.66,0.27
511369,0.42,0.44,0.21
511422,0.37,0.37,0.14
511474,0.43,0.45,0.13
511527,0.52,0.52,0.16
511580,0.70,0.70,0.24
511633,0.92,0.95,0.38
511685,1.23,1.35,0.63
511738,0.93,1.55,0.52
511792,0.30,1.12,0.62
511844,0.12,0.81,0.71
511897,0.25,0.69,0.41
511949,0.48,0.60,0.26
512003,0.55,0.59,0.27
512055,0.46,0.62,0.22
512108,0.40,0.61,0.27
512160,0.39,0.66,0.54
512214,0.50,0.87,0.72
512267,0.73,1.34,0.73
512319,0.35,1.24,0.75
512372,0.45,1.11,0.78
512424,0.61,1.15,0.55
512478,0.55,0.81,0.42
512530,0.43,0.61,0.29
512583,0.41,0.46,0.13
512636,0.40,0.40,0.10
512689,0.45,0.40,0.09
512742,0.63,0.54,0.10
512794,0.82,0.80,0.27
512847,1.19,1.16,0.59
512900,1.19,1.47,0.67
512953,0.55,1.16,0.78
513006,0.26,0.85,0.83
513058,0.23,0.72,0.49
513112,0.42,0.65,0.27
513164,0.57,0.57,0.21
513217,0.46,0.52,0.13
513269,0.44,0.52,0.06
513323,0.56,0.75,0.59
513375,0.55,1.18,0.86
513428,0.57,1.52,0.78
513481,0.33,1.77,0.79
513533,0.51,1.48,0.46
513587,0.84,1.20,0.19
513639,0.63,0.70,0.13
513692,0.46,0.47,0.09
513744,0.42,0.39,0.16
513798,0.41,0.41,0.24
513851,0.54,0.41,0.13
513903,0.69,0.52,0.15
513956,0.93,0.89,0.37
514009,1.52,1.52,0.89
514062,1.60,1.91,0.60
514114,1.01,1.63,0.55
514167,0.41,1.20,0.59
514220,0.03,0.80,0.37
514273,0.17,0.73,0.27
514326,0.62,0.90,0.32
514378,0.55,0.77,0.16
514432,0.23,0.85,0.12
514484,0.27,1.11,0.37
514537,0.30,1.39,0.64
514589,0.48,2.05,0.99
514642,0.50,1.96,0.85
514696,0.88,1.68,0.66
514748,0.96,1.15,0.42
514801,0.64,0.66,0.14
514853,0.49,0.50,0.01
514907,0.51,0.30,0.06
514959,0.51,0.16,0.07
515012,0.60,0.34,0.16
515064,0.84,0.70,0.41
515118,1.20,1.37,0.65
515171,1.59,2.10,0.68
515223,1.00,1.95,0.55
515276,0.17,1.24,0.82
515329,0.16,0.83,0.80
515382,0.29,0.68,0.45
515434,0.31,0.71,0.23
515487,0.35,0.78,0.23
515540,0.19,0.90,0.36
515593,-0.01,0.80,0.55
515646,0.27,0.88,0.56
515698,0.60,1.31,0.53
515751,0.93,1.77,0.60
515804,0.68,1.59,0.66
515857,0.82,1.56,0.48
515909,0.84,1.19,0.20
515962,0.71,0.91,0.07
516016,0.67,0.70,0.05
516068,0.63,0.42,0.09
516121,0.51,0.14,0.15
516173,0.55,0.23,0.34
516227,0.59,0.53,0.34
516279,0.99,0.92,0.59
516332,1.61,1.47,0.71
516385,1.66,1.39,0.75
516438,0.70,1.56,0.52
516491,0.27,1.21,0.48
516543,0.39,0.78,0.44
516596,0.65,0.64,0.30
516648,0.72,0.55,0.22
516702,0.51,0.60,0.13
516755,0.29,0.72,0.36
516807,0.35,0.85,0.55
516860,0.27,1.31,0.63
516913,0.62,1.50,0.77
516966,0.87,1.46,0.70
517018,0.97,1.40,0.73
517071,0.96,1.30,0.41
517124,0.81,1.05,0.26
517177,0.81,0.76,0.26
517230,0.65,0.46,0.16
517282,0.59,0.37,0.03
517336,0.51,0.35,0.02
517388,0.49,0.40,0.03
517441,0.69,0.54,0.03
517493,1.09,0.95,0.24
517547,1.44,1.45,0.55
517600,1.41,1.58,0.44
517652,0.77,1.62,0.73
517705,0.36,1.04,0.67
517757,0.42,0.77,0.23
517811,0.63,0.61,0.27
517863,0.57,0.55,0.24
517916,0.52,0.53,0.24
517968,0.36,0.56,0.34
518022,0.41,0.72,0.48
518075,0.43,0.91,0.40
518127,0.66,1.30,0.53
518180,0.98,1.40,0.81
518233,0.78,1.34,0.85
518286,1.04,1.40,0.75
518338,1.08,1.42,0.49
518391,1.00,1.06,0.37
518445,0.81,0.66,0.25
518497,0.63,0.40,0.05
518550,0.52,0.30,0.02
518602,0.48,0.24,0.05
518656,0.48,0.32,0.16
518708,0.84,0.55,0.42
518761,1.34,1.11,0.80
518813,1.73,1.55,0.94
518866,0.93,1.69,0.43
518920,0.48,1.45,0.48
518972,0.34,1.13,0.44
519025,0.49,0.91,0.38
519077,0.66,0.81,0.24
519131,0.48,0.83,0.17
519183,0.43,0.73,0.34
519236,0.49,0.66,0.48
519289,0.44,0.68,0.50
519342,0.50,0.70,0.44
519395,0.55,0.73,0.32
519447,0.50,0.65,0.09
519500,0.59,0.69,0.05
519553,1.33,1.44,0.56
519606,0.70,1.29,0.64
519658,0.23,1.30,0.40
519711,0.57,1.24,0.20
519764,0.80,0.94,0.19
519817,0.83,0.67,0.16
519870,0.67,0.42,0.11
519922,0.51,0.51,0.05
519975,0.59,0.72,0.06
520028,0.58,0.85,0.06
520081,0.57,1.07,0.17
520134,0.63,1.06,0.29
520186,0.68,1.10,0.28
520240,0.63,1.05,0.87
520292,0.23,1.09,0.64
520345,0.45,1.00,0.52
520397,0.47,0.68,0.10
520451,0.53,1.05,0.36
520503,0.43,0.95,0.33
520556,0.29,0.89,0.17
520609,0.20,0.75,0.23
520662,0.34,0.85,0.39
520715,0.44,1.00,0.47
520767,0.33,1.06,0.37
520820,0.39,1.04,0.28
520872,0.50,1.01,0.32
520926,0.60,1.07,0.36
520979,0.63,1.04,0.37
521031,0.56,0.91,0.39
521084,0.56,0.72,0.29
521137,0.48,0.52,0.23
521190,0.44,0.54,0.23
521242,0.44,0.59,0.15
521295,0.44,0.85,0.23
521348,0.40,1.27,0.19
521401,-0.09,1.23,0.48
521454,-0.04,1.04,0.37
521506,0.13,0.97,0.37
521560,0.22,0.87,0.50
521612,0.26,0.84,0.31
521665,0.31,0.91,0.24
521717,-0.05,1.09,0.34
521771,-0.48,1.27,0.45
521824,-0.09,1.24,0.28
521876,0.07,1.02,0.18
521929,0.17,0.77,0.15
521981,-0.02,0.88,0.16
522035,0.02,1.05,-0.01
522087,-0.04,0.95,0.09
522140,-0.05,0.80,0.16
522193,0.00,0.63,0.18
522246,0.15,0.68,0.16
522299,0.09,0.91,0.05
522351,0.07,0.95,0.12
522404,0.09,0.94,0.25
522457,0.24,0.90,0.23
522510,0.45,0.99,0.16
522562,0.37,1.23,0.18
522615,0.10,1.17,0.28
522669,0.19,1.04,0.38
522721,0.21,1.05,0.36
522774,0.34,0.89,0.37
522826,0.38,0.87,0.30
522880,0.37,0.79,0.30
522932,0.39,0.86,0.35
522985,0.50,0.90,0.42
523037,0.51,0.80,0.36
523090,0.45,0.84,0.30
523144,0.48,0.81,0.22
523196,0.46,0.77,0.27
523249,0.41,0.79,0.31
523301,0.43,0.80,0.27
523355,0.52,0.88,0.28
523407,0.48,0.77,0.30
523460,0.44,0.72,0.38
523513,0.37,0.77,0.44
523566,0.44,0.84,0.46
523619,0.38,0.91,0.37
523671,0.44,0.84,0.37
523724,0.53,0.73,0.34
523777,0.49,0.70,0.32
523830,0.48,0.73,0.37
523882,0.52,0.77,0.39
523935,0.54,0.75,0.34
523988,0.53,0.73,0.37
524041,0.52,0.74,0.40
524094,0.50,0.75,0.36
524146,0.48,0.78,0.35
524199,0.52,0.78,0.37
524252,0.52,0.75,0.36
524305,0.50,0.73,0.39
524358,0.48,0.75,0.37
524410,0.63,0.65,0.46
524464,0.50,0.78,0.37
524516,0.59,0.67,0.37
524569,0.56,0.70,0.34
524621,0.52,0.73,0.33
524675,0.56,0.71,0.39
524727,0.60,0.70,0.44
524780,0.52,0.77,0.39
524833,0.49,0.73,0.38
524886,0.48,0.74,0.39
524939,0.57,0.71,0.44
524991,0.54,0.72,0.39
525044,0.54,0.73,0.34
525096,0.59,0.69,0.36
525150,0.55,0.74,0.36
525203,0.56,0.71,0.30
525255,0.57,0.72,0.34
525308,0.57,0.71,0.33
525361,0.55,0.72,0.37
525414,0.56,0.72,0.37
525466,0.55,0.72,0.34
525519,0.55,0.73,0.36
525573,0.62,0.70,0.38
525625,0.58,0.72,0.38
525678,0.62,0.72,0.34
525730,0.58,0.70,0.34
525784,0.55,0.67,0.34
525836,0.59,0.71,0.35
525889,0.62,0.70,0.38
525941,0.59,0.70,0.41
525995,0.59,0.67,0.44
526048,0.61,0.64,0.42
526100,0.61,0.65,0.33
526153,0.69,0.62,0.33
526205,0.68,0.63,0.27
526259,0.65,0.63,0.29
526311,0.62,0.73,0.45
526364,0.45,0.77,0.48
526417,0.58,0.64,0.43
526470,0.64,0.63,0.37
526523,0.61,0.72,0.41
526575,0.59,0.73,0.45
526628,0.60,0.69,0.37
526681,0.70,0.59,0.31
526734,0.67,0.67,0.27
526787,0.60,0.65,0.36
526839,0.60,0.66,0.33
526893,0.68,0.67,0.27
526945,0.63,0.72,0.28
526998,0.58,0.71,0.36
527050,0.59,0.70,0.41
527104,0.62,0.66,0.36
527156,0.66,0.66,0.32
527209,0.72,0.63,0.30
527262,0.75,0.64,0.28
527314,0.66,0.65,0.18
527368,0.63,0.70,0.20
527420,0.68,0.70,0.28
527473,0.66,0.67,0.33
527525,0.57,0.76,0.31
527579,0.55,0.75,0.34
527632,0.48,0.77,0.38
527684,0.52,0.71,0.43
527737,0.70,0.58,0.41
527790,0.66,0.70,0.31
527843,0.61,0.74,0.29
527895,0.56,0.72,0.34
527948,0.58,0.70,0.34
528001,0.57,0.70,0.32
528054,0.59,0.72,0.31
528107,0.60,0.70,0.32
528159,0.61,0.72,0.33
528212,0.62,0.71,0.36
